# Standard Model Evoultion for 1 keV < T < 10 MeV as calculated in Escudero 2001.04466, JCAP 05 (2020) 048
# Includes NLO-QED thermal corrections, and the electron mass and spin-statistics in the collision terms
# Neff          = 3.044
# O_nu/mnu (eV) = 93.07
# s0 (cm^-3)    = 2906.92
# g_s0          = 3.930
# g_*0          = 3.383
# Definitions: a is the dimensionless scale factor, z_gam = a T_gam/m_e , z_nu = a T_nu/m_e, N is defined in Eq A.17 in 2001.04466
# t (s)        T_gam (MeV)    T_gam/T_nue    T_gam/T_numu   g*             gs             a              z_gam          z_nue          z_numu         N              
7.3866873E-03  1.0000000E+01  1.0000003E+00  1.0000005E+00  1.0736123E+01  1.0735804E+01  5.1101226E-02  1.0000240E+00  1.0000236E+00  1.0000235E+00  4.0549926E-04  
7.5240227E-03  9.9083194E+00  1.0000004E+00  1.0000005E+00  1.0736110E+01  1.0735785E+01  5.1574089E-02  1.0000246E+00  1.0000242E+00  1.0000240E+00  4.1283756E-04  
7.6639115E-03  9.8174794E+00  1.0000004E+00  1.0000006E+00  1.0736098E+01  1.0735767E+01  5.2051328E-02  1.0000251E+00  1.0000248E+00  1.0000246E+00  4.2030343E-04  
7.8064013E-03  9.7274722E+00  1.0000004E+00  1.0000006E+00  1.0736085E+01  1.0735748E+01  5.2532984E-02  1.0000257E+00  1.0000253E+00  1.0000251E+00  4.2789836E-04  
7.9515405E-03  9.6382902E+00  1.0000004E+00  1.0000006E+00  1.0736072E+01  1.0735728E+01  5.3019098E-02  1.0000263E+00  1.0000259E+00  1.0000257E+00  4.3562379E-04  
8.0993783E-03  9.5499259E+00  1.0000004E+00  1.0000007E+00  1.0736058E+01  1.0735709E+01  5.3509710E-02  1.0000269E+00  1.0000265E+00  1.0000263E+00  4.4348013E-04  
8.2499649E-03  9.4623716E+00  1.0000005E+00  1.0000007E+00  1.0736045E+01  1.0735689E+01  5.4004863E-02  1.0000276E+00  1.0000271E+00  1.0000269E+00  4.5147230E-04  
8.4033514E-03  9.3756201E+00  1.0000005E+00  1.0000007E+00  1.0736031E+01  1.0735668E+01  5.4504599E-02  1.0000282E+00  1.0000277E+00  1.0000275E+00  4.5960098E-04  
8.5595898E-03  9.2896639E+00  1.0000005E+00  1.0000008E+00  1.0736016E+01  1.0735647E+01  5.5008959E-02  1.0000288E+00  1.0000283E+00  1.0000281E+00  4.6786641E-04  
8.7187333E-03  9.2044957E+00  1.0000005E+00  1.0000008E+00  1.0736002E+01  1.0735626E+01  5.5517988E-02  1.0000295E+00  1.0000290E+00  1.0000287E+00  4.7627288E-04  
8.8808359E-03  9.1201084E+00  1.0000005E+00  1.0000008E+00  1.0735987E+01  1.0735604E+01  5.6031727E-02  1.0000302E+00  1.0000296E+00  1.0000294E+00  4.8482359E-04  
9.0459524E-03  9.0364947E+00  1.0000006E+00  1.0000009E+00  1.0735972E+01  1.0735582E+01  5.6550221E-02  1.0000309E+00  1.0000303E+00  1.0000300E+00  4.9351637E-04  
9.2141391E-03  8.9536477E+00  1.0000006E+00  1.0000009E+00  1.0735957E+01  1.0735560E+01  5.7073514E-02  1.0000316E+00  1.0000310E+00  1.0000307E+00  5.0235410E-04  
9.3854530E-03  8.8715601E+00  1.0000006E+00  1.0000009E+00  1.0735941E+01  1.0735537E+01  5.7601649E-02  1.0000323E+00  1.0000317E+00  1.0000313E+00  5.1134359E-04  
9.5599522E-03  8.7902252E+00  1.0000007E+00  1.0000010E+00  1.0735925E+01  1.0735513E+01  5.8134673E-02  1.0000330E+00  1.0000324E+00  1.0000320E+00  5.2048337E-04  
9.7376961E-03  8.7096359E+00  1.0000007E+00  1.0000010E+00  1.0735909E+01  1.0735489E+01  5.8672630E-02  1.0000337E+00  1.0000331E+00  1.0000327E+00  5.2977827E-04  
9.9187448E-03  8.6297855E+00  1.0000007E+00  1.0000011E+00  1.0735892E+01  1.0735465E+01  5.9215566E-02  1.0000345E+00  1.0000338E+00  1.0000334E+00  5.3922471E-04  
1.0103160E-02  8.5506671E+00  1.0000008E+00  1.0000011E+00  1.0735875E+01  1.0735440E+01  5.9763527E-02  1.0000353E+00  1.0000345E+00  1.0000341E+00  5.4882824E-04  
1.0291004E-02  8.4722741E+00  1.0000008E+00  1.0000012E+00  1.0735858E+01  1.0735415E+01  6.0316559E-02  1.0000361E+00  1.0000353E+00  1.0000349E+00  5.5858944E-04  
1.0482341E-02  8.3945999E+00  1.0000008E+00  1.0000012E+00  1.0735840E+01  1.0735389E+01  6.0874710E-02  1.0000369E+00  1.0000360E+00  1.0000356E+00  5.6851184E-04  
1.0677236E-02  8.3176377E+00  1.0000009E+00  1.0000013E+00  1.0735822E+01  1.0735363E+01  6.1438027E-02  1.0000377E+00  1.0000368E+00  1.0000364E+00  5.7859727E-04  
1.0875754E-02  8.2413812E+00  1.0000009E+00  1.0000014E+00  1.0735803E+01  1.0735336E+01  6.2006558E-02  1.0000385E+00  1.0000376E+00  1.0000371E+00  5.8884907E-04  
1.1077964E-02  8.1658237E+00  1.0000009E+00  1.0000014E+00  1.0735785E+01  1.0735309E+01  6.2580350E-02  1.0000394E+00  1.0000384E+00  1.0000379E+00  5.9926857E-04  
1.1283933E-02  8.0909590E+00  1.0000010E+00  1.0000015E+00  1.0735765E+01  1.0735281E+01  6.3159454E-02  1.0000402E+00  1.0000392E+00  1.0000387E+00  6.0985953E-04  
1.1493733E-02  8.0167806E+00  1.0000010E+00  1.0000016E+00  1.0735746E+01  1.0735253E+01  6.3743917E-02  1.0000411E+00  1.0000401E+00  1.0000395E+00  6.2062339E-04  
1.1707433E-02  7.9432823E+00  1.0000011E+00  1.0000016E+00  1.0735726E+01  1.0735224E+01  6.4333790E-02  1.0000420E+00  1.0000409E+00  1.0000404E+00  6.3155689E-04  
1.1925108E-02  7.8704579E+00  1.0000011E+00  1.0000017E+00  1.0735705E+01  1.0735194E+01  6.4929123E-02  1.0000429E+00  1.0000418E+00  1.0000412E+00  6.4266898E-04  
1.2146829E-02  7.7983011E+00  1.0000012E+00  1.0000018E+00  1.0735685E+01  1.0735164E+01  6.5529966E-02  1.0000438E+00  1.0000427E+00  1.0000421E+00  6.5395450E-04  
1.2372674E-02  7.7268059E+00  1.0000012E+00  1.0000019E+00  1.0735663E+01  1.0735133E+01  6.6136370E-02  1.0000448E+00  1.0000436E+00  1.0000429E+00  6.6542148E-04  
1.2602718E-02  7.6559661E+00  1.0000013E+00  1.0000019E+00  1.0735642E+01  1.0735102E+01  6.6748387E-02  1.0000458E+00  1.0000445E+00  1.0000438E+00  6.7706905E-04  
1.2837039E-02  7.5857758E+00  1.0000014E+00  1.0000020E+00  1.0735620E+01  1.0735070E+01  6.7366069E-02  1.0000468E+00  1.0000454E+00  1.0000447E+00  6.8890105E-04  
1.3075718E-02  7.5162289E+00  1.0000014E+00  1.0000021E+00  1.0735597E+01  1.0735038E+01  6.7989468E-02  1.0000478E+00  1.0000464E+00  1.0000456E+00  7.0092151E-04  
1.3318834E-02  7.4473197E+00  1.0000015E+00  1.0000022E+00  1.0735574E+01  1.0735005E+01  6.8618638E-02  1.0000488E+00  1.0000473E+00  1.0000466E+00  7.1313087E-04  
1.3566472E-02  7.3790423E+00  1.0000015E+00  1.0000023E+00  1.0735551E+01  1.0734971E+01  6.9253631E-02  1.0000498E+00  1.0000483E+00  1.0000475E+00  7.2553601E-04  
1.3818714E-02  7.3113908E+00  1.0000016E+00  1.0000024E+00  1.0735527E+01  1.0734936E+01  6.9894502E-02  1.0000509E+00  1.0000493E+00  1.0000485E+00  7.3813242E-04  
1.4075647E-02  7.2443596E+00  1.0000017E+00  1.0000025E+00  1.0735502E+01  1.0734901E+01  7.0541305E-02  1.0000520E+00  1.0000503E+00  1.0000495E+00  7.5091762E-04  
1.4337357E-02  7.1779429E+00  1.0000018E+00  1.0000027E+00  1.0735477E+01  1.0734865E+01  7.1194095E-02  1.0000531E+00  1.0000514E+00  1.0000505E+00  7.6390013E-04  
1.4603934E-02  7.1121351E+00  1.0000019E+00  1.0000028E+00  1.0735451E+01  1.0734829E+01  7.1852927E-02  1.0000543E+00  1.0000524E+00  1.0000515E+00  7.7707461E-04  
1.4875467E-02  7.0469307E+00  1.0000019E+00  1.0000029E+00  1.0735425E+01  1.0734791E+01  7.2517858E-02  1.0000554E+00  1.0000535E+00  1.0000525E+00  7.9045703E-04  
1.5152050E-02  6.9823240E+00  1.0000020E+00  1.0000030E+00  1.0735399E+01  1.0734753E+01  7.3188944E-02  1.0000566E+00  1.0000546E+00  1.0000536E+00  8.0404188E-04  
1.5433776E-02  6.9183097E+00  1.0000021E+00  1.0000032E+00  1.0735372E+01  1.0734715E+01  2.1474918E-02  2.9074390E-01  2.4669999E+00  1.3790848E+00  0.0000000E+00  
1.5720741E-02  6.8548823E+00  1.0000022E+00  1.0000033E+00  1.0735344E+01  1.0734675E+01  7.4549809E-02  1.0000590E+00  1.0000568E+00  1.0000557E+00  8.3182992E-04  
1.6013043E-02  6.7920363E+00  1.0000023E+00  1.0000035E+00  1.0735315E+01  1.0734635E+01  7.5239704E-02  1.0000603E+00  1.0000580E+00  1.0000568E+00  8.4603258E-04  
1.6310779E-02  6.7297666E+00  1.0000024E+00  1.0000036E+00  1.0735286E+01  1.0734594E+01  7.5935986E-02  1.0000616E+00  1.0000591E+00  1.0000579E+00  8.6044272E-04  
1.6614052E-02  6.6680677E+00  1.0000025E+00  1.0000038E+00  1.0735257E+01  1.0734552E+01  7.6638713E-02  1.0000629E+00  1.0000603E+00  1.0000591E+00  8.7506299E-04  
1.6922965E-02  6.6069345E+00  1.0000027E+00  1.0000040E+00  1.0735227E+01  1.0734509E+01  7.7347945E-02  1.0000642E+00  1.0000615E+00  1.0000602E+00  8.8989861E-04  
1.7237623E-02  6.5463617E+00  1.0000028E+00  1.0000042E+00  1.0735196E+01  1.0734465E+01  7.8063743E-02  1.0000656E+00  1.0000628E+00  1.0000614E+00  9.0495161E-04  
1.7558131E-02  6.4863443E+00  1.0000029E+00  1.0000043E+00  1.0735164E+01  1.0734421E+01  7.8786167E-02  1.0000669E+00  1.0000640E+00  1.0000626E+00  9.2022262E-04  
1.7884600E-02  6.4268772E+00  1.0000030E+00  1.0000045E+00  1.0735132E+01  1.0734375E+01  7.9515278E-02  1.0000683E+00  1.0000653E+00  1.0000638E+00  9.3571273E-04  
1.8217140E-02  6.3679552E+00  1.0000032E+00  1.0000047E+00  1.0735099E+01  1.0734329E+01  8.0251140E-02  1.0000698E+00  1.0000666E+00  1.0000650E+00  9.5141382E-04  
1.8555864E-02  6.3095734E+00  1.0000033E+00  1.0000050E+00  1.0735066E+01  1.0734281E+01  8.0993813E-02  1.0000713E+00  1.0000679E+00  1.0000663E+00  9.6734135E-04  
1.8900887E-02  6.2517269E+00  1.0000035E+00  1.0000052E+00  1.0735031E+01  1.0734233E+01  8.1743362E-02  1.0000728E+00  1.0000693E+00  1.0000676E+00  9.8349104E-04  
1.9252326E-02  6.1944108E+00  1.0000036E+00  1.0000054E+00  1.0734996E+01  1.0734184E+01  8.2499851E-02  1.0000743E+00  1.0000707E+00  1.0000689E+00  9.9986776E-04  
1.9610300E-02  6.1376201E+00  1.0000038E+00  1.0000057E+00  1.0734960E+01  1.0734134E+01  8.3263342E-02  1.0000758E+00  1.0000721E+00  1.0000702E+00  1.0164673E-03  
1.9974932E-02  6.0813500E+00  1.0000040E+00  1.0000059E+00  1.0734924E+01  1.0734082E+01  8.4033902E-02  1.0000774E+00  1.0000735E+00  1.0000715E+00  1.0332935E-03  
2.0346344E-02  6.0255959E+00  1.0000041E+00  1.0000062E+00  1.0734886E+01  1.0734030E+01  8.4811596E-02  1.0000791E+00  1.0000749E+00  1.0000729E+00  1.0503450E-03  
2.0724664E-02  5.9703529E+00  1.0000043E+00  1.0000064E+00  1.0734848E+01  1.0733977E+01  8.5596490E-02  1.0000807E+00  1.0000764E+00  1.0000743E+00  1.0676207E-03  
2.1110020E-02  5.9156163E+00  1.0000045E+00  1.0000067E+00  1.0734809E+01  1.0733922E+01  8.6388651E-02  1.0000824E+00  1.0000779E+00  1.0000757E+00  1.0851284E-03  
2.1502541E-02  5.8613816E+00  1.0000047E+00  1.0000070E+00  1.0734769E+01  1.0733866E+01  8.7188146E-02  1.0000841E+00  1.0000794E+00  1.0000771E+00  1.1028657E-03  
2.1902363E-02  5.8076442E+00  1.0000049E+00  1.0000073E+00  1.0734728E+01  1.0733810E+01  8.7995043E-02  1.0000859E+00  1.0000810E+00  1.0000786E+00  1.1208328E-03  
2.2309620E-02  5.7543994E+00  1.0000051E+00  1.0000077E+00  1.0734686E+01  1.0733752E+01  8.8809411E-02  1.0000877E+00  1.0000826E+00  1.0000800E+00  1.1390359E-03  
2.2724452E-02  5.7016427E+00  1.0000054E+00  1.0000080E+00  1.0734643E+01  1.0733693E+01  8.9631318E-02  1.0000895E+00  1.0000842E+00  1.0000815E+00  1.1574710E-03  
2.3146998E-02  5.6493697E+00  1.0000056E+00  1.0000084E+00  1.0734600E+01  1.0733632E+01  9.0460836E-02  1.0000914E+00  1.0000858E+00  1.0000830E+00  1.1761425E-03  
2.3577402E-02  5.5975760E+00  1.0000059E+00  1.0000087E+00  1.0734555E+01  1.0733571E+01  9.1298035E-02  1.0000933E+00  1.0000875E+00  1.0000846E+00  1.1950503E-03  
2.4015811E-02  5.5462571E+00  1.0000061E+00  1.0000091E+00  1.0734509E+01  1.0733508E+01  9.2142985E-02  1.0000953E+00  1.0000891E+00  1.0000861E+00  1.2141901E-03  
2.4462374E-02  5.4954087E+00  1.0000064E+00  1.0000095E+00  1.0734463E+01  1.0733444E+01  9.2995758E-02  1.0000973E+00  1.0000909E+00  1.0000877E+00  1.2335623E-03  
2.4917242E-02  5.4450265E+00  1.0000067E+00  1.0000099E+00  1.0734415E+01  1.0733378E+01  9.3856428E-02  1.0000993E+00  1.0000926E+00  1.0000894E+00  1.2531619E-03  
2.5380570E-02  5.3951062E+00  1.0000070E+00  1.0000104E+00  1.0734366E+01  1.0733312E+01  9.4725068E-02  1.0001014E+00  1.0000944E+00  1.0000910E+00  1.2729942E-03  
2.5852515E-02  5.3456436E+00  1.0000073E+00  1.0000108E+00  1.0734316E+01  1.0733243E+01  9.5601751E-02  1.0001035E+00  1.0000962E+00  1.0000927E+00  1.2930620E-03  
2.6333237E-02  5.2966344E+00  1.0000076E+00  1.0000113E+00  1.0734265E+01  1.0733174E+01  9.6486552E-02  1.0001057E+00  1.0000980E+00  1.0000943E+00  1.3133756E-03  
2.6822901E-02  5.2480746E+00  1.0000080E+00  1.0000118E+00  1.0734213E+01  1.0733103E+01  9.7379546E-02  1.0001079E+00  1.0000999E+00  1.0000961E+00  1.3339278E-03  
2.7321671E-02  5.1999600E+00  1.0000083E+00  1.0000123E+00  1.0734159E+01  1.0733030E+01  9.8280809E-02  1.0001101E+00  1.0001018E+00  1.0000978E+00  1.3547106E-03  
2.7829719E-02  5.1522864E+00  1.0000087E+00  1.0000129E+00  1.0734105E+01  1.0732956E+01  9.9190418E-02  1.0001124E+00  1.0001037E+00  1.0000996E+00  1.3757251E-03  
2.8347215E-02  5.1050500E+00  1.0000091E+00  1.0000134E+00  1.0734049E+01  1.0732880E+01  1.0010845E-01  1.0001148E+00  1.0001057E+00  1.0001013E+00  1.3969658E-03  
2.8874337E-02  5.0582466E+00  1.0000095E+00  1.0000140E+00  1.0733991E+01  1.0732803E+01  1.0103499E-01  1.0001172E+00  1.0001077E+00  1.0001032E+00  1.4184341E-03  
2.9411264E-02  5.0118723E+00  1.0000099E+00  1.0000146E+00  1.0733933E+01  1.0732724E+01  1.0197010E-01  1.0001196E+00  1.0001097E+00  1.0001050E+00  1.4401334E-03  
2.9958177E-02  4.9659232E+00  1.0000103E+00  1.0000153E+00  1.0733873E+01  1.0732644E+01  1.0291388E-01  1.0001221E+00  1.0001118E+00  1.0001069E+00  1.4620634E-03  
3.0515262E-02  4.9203954E+00  1.0000108E+00  1.0000159E+00  1.0733811E+01  1.0732561E+01  1.0386639E-01  1.0001247E+00  1.0001139E+00  1.0001088E+00  1.4842191E-03  
3.1082710E-02  4.8752849E+00  1.0000112E+00  1.0000166E+00  1.0733749E+01  1.0732477E+01  1.0482773E-01  1.0001273E+00  1.0001160E+00  1.0001107E+00  1.5066055E-03  
3.1660713E-02  4.8305880E+00  1.0000117E+00  1.0000173E+00  1.0733685E+01  1.0732391E+01  1.0579797E-01  1.0001300E+00  1.0001182E+00  1.0001126E+00  1.5292197E-03  
3.2249466E-02  4.7863009E+00  1.0000122E+00  1.0000181E+00  1.0733619E+01  1.0732304E+01  1.0677720E-01  1.0001327E+00  1.0001204E+00  1.0001146E+00  1.5520627E-03  
3.2849172E-02  4.7424199E+00  1.0000128E+00  1.0000188E+00  1.0733551E+01  1.0732214E+01  1.0776549E-01  1.0001355E+00  1.0001227E+00  1.0001166E+00  1.5751291E-03  
3.3460032E-02  4.6989411E+00  1.0000133E+00  1.0000196E+00  1.0733483E+01  1.0732123E+01  1.0876294E-01  1.0001383E+00  1.0001250E+00  1.0001187E+00  1.5984115E-03  
3.4082255E-02  4.6558609E+00  1.0000139E+00  1.0000205E+00  1.0733412E+01  1.0732030E+01  1.0976963E-01  1.0001412E+00  1.0001273E+00  1.0001207E+00  1.6219052E-03  
3.4716053E-02  4.6131757E+00  1.0000145E+00  1.0000214E+00  1.0733340E+01  1.0731934E+01  1.1078565E-01  1.0001442E+00  1.0001296E+00  1.0001228E+00  1.6456085E-03  
3.5361641E-02  4.5708819E+00  1.0000151E+00  1.0000223E+00  1.0733266E+01  1.0731837E+01  1.1181107E-01  1.0001472E+00  1.0001320E+00  1.0001249E+00  1.6695265E-03  
3.6019237E-02  4.5289758E+00  1.0000158E+00  1.0000232E+00  1.0733190E+01  1.0731737E+01  1.1284600E-01  1.0001503E+00  1.0001345E+00  1.0001271E+00  1.6936631E-03  
3.6689067E-02  4.4874539E+00  1.0000165E+00  1.0000242E+00  1.0733113E+01  1.0731636E+01  1.1389051E-01  1.0001534E+00  1.0001370E+00  1.0001292E+00  1.7180106E-03  
3.7371357E-02  4.4463127E+00  1.0000172E+00  1.0000252E+00  1.0733034E+01  1.0731532E+01  1.1494469E-01  1.0001567E+00  1.0001395E+00  1.0001314E+00  1.7425580E-03  
3.8066340E-02  4.4055486E+00  1.0000179E+00  1.0000263E+00  1.0732952E+01  1.0731426E+01  1.1600865E-01  1.0001600E+00  1.0001420E+00  1.0001337E+00  1.7673016E-03  
3.8774252E-02  4.3651583E+00  1.0000187E+00  1.0000274E+00  1.0732869E+01  1.0731317E+01  1.1708246E-01  1.0001633E+00  1.0001446E+00  1.0001359E+00  1.7922477E-03  
3.9495333E-02  4.3251383E+00  1.0000195E+00  1.0000285E+00  1.0732784E+01  1.0731207E+01  1.1816621E-01  1.0001668E+00  1.0001473E+00  1.0001382E+00  1.8173942E-03  
4.0229829E-02  4.2854852E+00  1.0000203E+00  1.0000297E+00  1.0732697E+01  1.0731094E+01  1.1926001E-01  1.0001703E+00  1.0001499E+00  1.0001406E+00  1.8427316E-03  
4.0977990E-02  4.2461956E+00  1.0000212E+00  1.0000310E+00  1.0732608E+01  1.0730978E+01  1.2036394E-01  1.0001739E+00  1.0001527E+00  1.0001429E+00  1.8682534E-03  
4.1740070E-02  4.2072663E+00  1.0000221E+00  1.0000323E+00  1.0732516E+01  1.0730860E+01  1.2147810E-01  1.0001775E+00  1.0001554E+00  1.0001453E+00  1.8939545E-03  
4.2516328E-02  4.1686938E+00  1.0000230E+00  1.0000336E+00  1.0732422E+01  1.0730739E+01  1.2260258E-01  1.0001813E+00  1.0001583E+00  1.0001477E+00  1.9198307E-03  
4.3307028E-02  4.1304750E+00  1.0000240E+00  1.0000350E+00  1.0732326E+01  1.0730616E+01  1.2373749E-01  1.0001851E+00  1.0001611E+00  1.0001501E+00  1.9458792E-03  
4.4112440E-02  4.0926066E+00  1.0000250E+00  1.0000364E+00  1.0732228E+01  1.0730490E+01  1.2488290E-01  1.0001890E+00  1.0001640E+00  1.0001526E+00  1.9720985E-03  
4.4932836E-02  4.0550854E+00  1.0000261E+00  1.0000379E+00  1.0732127E+01  1.0730361E+01  1.2603894E-01  1.0001930E+00  1.0001670E+00  1.0001551E+00  1.9984895E-03  
4.5768497E-02  4.0179081E+00  1.0000272E+00  1.0000395E+00  1.0732024E+01  1.0730229E+01  1.2720568E-01  1.0001971E+00  1.0001700E+00  1.0001576E+00  2.0250415E-03  
4.6619707E-02  3.9810717E+00  1.0000283E+00  1.0000411E+00  1.0731918E+01  1.0730095E+01  1.2838324E-01  1.0002013E+00  1.0001730E+00  1.0001602E+00  2.0517535E-03  
4.7486754E-02  3.9445730E+00  1.0000295E+00  1.0000428E+00  1.0731810E+01  1.0729957E+01  1.2957171E-01  1.0002056E+00  1.0001761E+00  1.0001628E+00  2.0786095E-03  
4.8369935E-02  3.9084090E+00  1.0000307E+00  1.0000445E+00  1.0731699E+01  1.0729817E+01  1.3077119E-01  1.0002099E+00  1.0001792E+00  1.0001654E+00  2.1056076E-03  
4.9269550E-02  3.8725764E+00  1.0000320E+00  1.0000464E+00  1.0731585E+01  1.0729673E+01  1.3198179E-01  1.0002144E+00  1.0001824E+00  1.0001681E+00  2.1327341E-03  
5.0185904E-02  3.8370725E+00  1.0000333E+00  1.0000482E+00  1.0731469E+01  1.0729526E+01  1.3320361E-01  1.0002190E+00  1.0001856E+00  1.0001707E+00  2.1599956E-03  
5.1119310E-02  3.8018940E+00  1.0000347E+00  1.0000502E+00  1.0731349E+01  1.0729376E+01  1.3443675E-01  1.0002236E+00  1.0001889E+00  1.0001734E+00  2.1873867E-03  
5.2070085E-02  3.7670380E+00  1.0000362E+00  1.0000522E+00  1.0731227E+01  1.0729223E+01  1.3568133E-01  1.0002284E+00  1.0001922E+00  1.0001762E+00  2.2149150E-03  
5.3038553E-02  3.7325016E+00  1.0000377E+00  1.0000543E+00  1.0731102E+01  1.0729066E+01  1.3693744E-01  1.0002333E+00  1.0001956E+00  1.0001790E+00  2.2425617E-03  
5.4025044E-02  3.6982818E+00  1.0000392E+00  1.0000565E+00  1.0730973E+01  1.0728906E+01  1.3820519E-01  1.0002383E+00  1.0001990E+00  1.0001818E+00  2.2703199E-03  
5.5029893E-02  3.6643757E+00  1.0000408E+00  1.0000587E+00  1.0730841E+01  1.0728742E+01  1.3948470E-01  1.0002433E+00  1.0002025E+00  1.0001846E+00  2.2981796E-03  
5.6053443E-02  3.6307805E+00  1.0000425E+00  1.0000611E+00  1.0730706E+01  1.0728575E+01  1.4077607E-01  1.0002486E+00  1.0002060E+00  1.0001875E+00  2.3261224E-03  
5.7096042E-02  3.5974934E+00  1.0000442E+00  1.0000635E+00  1.0730568E+01  1.0728403E+01  1.4207941E-01  1.0002539E+00  1.0002096E+00  1.0001903E+00  2.3541418E-03  
5.8158044E-02  3.5645113E+00  1.0000460E+00  1.0000660E+00  1.0730426E+01  1.0728228E+01  1.4339483E-01  1.0002593E+00  1.0002133E+00  1.0001933E+00  2.3822398E-03  
5.9239813E-02  3.5318317E+00  1.0000479E+00  1.0000686E+00  1.0730281E+01  1.0728049E+01  1.4472245E-01  1.0002649E+00  1.0002170E+00  1.0001962E+00  2.4104126E-03  
6.0341715E-02  3.4994517E+00  1.0000498E+00  1.0000713E+00  1.0730132E+01  1.0727866E+01  1.4606238E-01  1.0002706E+00  1.0002207E+00  1.0001992E+00  2.4386683E-03  
6.1464126E-02  3.4673685E+00  1.0000519E+00  1.0000741E+00  1.0729980E+01  1.0727679E+01  1.4741474E-01  1.0002764E+00  1.0002245E+00  1.0002022E+00  2.4669832E-03  
