#time (s)      Tγ/mϕ         Tν/Tγ           μν/Tγ             Tϕ/Tγ          μϕ/Tγ         H/Tγ2        rhotot/Tγ4      ptot/Tγ4      ρnu/Tγ4        ρϕ/Tγ4            pϕ/Tγ4            nnu/Tγ3        nϕ/Tγ3
1682.497      27.96586      0.7173266      -0.004130748      0.4799888      -2.075932      3.053551      1.112992      0.3709971      0.4548043      0.0002135988      0.00007113413      0.2012365      0.0001483222
1732.742      27.5574      0.7173663      -0.00431381      0.4800453      -2.055172      3.053551      1.112992      0.3709971      0.4547946      0.0002232624      0.00007435035      0.2012231      0.0001550158
1784.488      27.15492      0.7174078      -0.004504993      0.4801053      -2.03445      3.053551      1.112992      0.3709971      0.4547845      0.0002333565      0.00007770972      0.2012091      0.0001620059
1837.779      26.75831      0.7174511      -0.004704652      0.4801687      -2.013765      3.053551      1.112992      0.3709971      0.454774      0.0002439002      0.00008121851      0.2011945      0.0001693054
1892.662      26.36749      0.7174963      -0.004913157      0.4802357      -1.993118      3.053551      1.112992      0.3709971      0.454763      0.0002549131      0.00008488329      0.2011792      0.0001769276
1949.183      25.98238      0.7175436      -0.005130892      0.4803064      -1.972509      3.053551      1.112992      0.3709971      0.4547515      0.0002664159      0.00008871088      0.2011633      0.0001848866
2007.393      25.6029      0.7175929      -0.005358257      0.4803808      -1.951939      3.053551      1.112992      0.3709971      0.4547395      0.0002784299      0.00009270838      0.2011467      0.0001931969
2067.34      25.22896      0.7176443      -0.005595672      0.4804592      -1.931407      3.053551      1.112992      0.3709971      0.4547269      0.0002909775      0.00009688323      0.2011293      0.0002018737
2129.078      24.86048      0.7176981      -0.005843571      0.4805415      -1.910914      3.053551      1.112992      0.3709971      0.4547138      0.0003040821      0.0001012431      0.2011112      0.0002109327
2192.66      24.49738      0.7177542      -0.006102406      0.4806279      -1.890461      3.053551      1.112992      0.3709971      0.4547002      0.0003177679      0.0001057962      0.2010923      0.0002203905
2258.14      24.13959      0.7178128      -0.006372651      0.4807185      -1.870048      3.053551      1.112992      0.3709971      0.4546859      0.0003320603      0.0001105507      0.2010726      0.000230264
2325.576      23.78702      0.7178739      -0.006654797      0.4808134      -1.849676      3.053551      1.112992      0.370997      0.454671      0.0003469856      0.0001155155      0.201052      0.0002405712
2395.026      23.4396      0.7179378      -0.006949354      0.4809129      -1.829345      3.053551      1.112992      0.370997      0.4546554      0.0003625712      0.0001206997      0.2010304      0.0002513305
2466.55      23.09725      0.7180044      -0.007256856      0.4810169      -1.809057      3.053551      1.112992      0.370997      0.4546391      0.0003788459      0.0001261127      0.201008      0.0002625613
2540.21      22.75991      0.7180739      -0.007577856      0.4811258      -1.788811      3.053551      1.112992      0.370997      0.4546221      0.0003958394      0.0001317645      0.2009845      0.0002742834
2616.069      22.42749      0.7181465      -0.00791293      0.4812395      -1.768609      3.053551      1.112992      0.370997      0.4546044      0.0004135828      0.0001376652      0.2009601      0.0002865179
2694.194      22.09993      0.7182223      -0.008262678      0.4813583      -1.748452      3.053551      1.112992      0.370997      0.4545859      0.0004321083      0.0001438256      0.2009345      0.0002992863
2774.652      21.77715      0.7183013      -0.008627725      0.4814824      -1.728341      3.053551      1.112992      0.370997      0.4545665      0.0004514496      0.0001502568      0.2009079      0.0003126111
2857.513      21.45909      0.7183838      -0.009008717      0.481612      -1.708277      3.053552      1.112992      0.370997      0.4545464      0.0004716416      0.0001569705      0.2008801      0.0003265158
2942.848      21.14567      0.7184699      -0.009406329      0.4817471      -1.68826      3.053552      1.112992      0.3709969      0.4545253      0.0004927209      0.0001639786      0.200851      0.0003410246
3030.732      20.83683      0.7185598      -0.009821261      0.4818881      -1.668292      3.053552      1.112992      0.3709969      0.4545033      0.0005147252      0.0001712937      0.2008208      0.0003561628
3121.24      20.53249      0.7186535      -0.01025424      0.482035      -1.648374      3.053552      1.112992      0.3709969      0.4544803      0.000537694      0.0001789289      0.2007892      0.0003719565
3214.451      20.23261      0.7187512      -0.01070603      0.4821882      -1.628508      3.053552      1.112992      0.3709969      0.4544564      0.0005616682      0.0001868976      0.2007562      0.000388433
3310.446      19.9371      0.7188532      -0.0111774      0.4823479      -1.608694      3.053552      1.112992      0.3709969      0.4544314      0.0005866905      0.000195214      0.2007219      0.0004056204
3409.308      19.64591      0.7189596      -0.01166918      0.4825142      -1.588935      3.053552      1.112992      0.3709969      0.4544053      0.0006128051      0.0002038927      0.200686      0.0004235481
3511.121      19.35898      0.7190706      -0.01218221      0.4826875      -1.569231      3.053552      1.112992      0.3709968      0.454378      0.000640058      0.0002129489      0.2006486      0.0004422463
3615.976      19.07623      0.7191863      -0.01271738      0.4828679      -1.549585      3.053552      1.112992      0.3709968      0.4543496      0.0006684971      0.0002223984      0.2006096      0.0004617465
3723.961      18.79761      0.719307      -0.01327558      0.4830557      -1.529997      3.053552      1.112992      0.3709968      0.45432      0.0006981719      0.0002322576      0.2005689      0.0004820812
3835.172      18.52307      0.7194329      -0.01385776      0.4832512      -1.510469      3.053552      1.112992      0.3709968      0.454289      0.0007291341      0.0002425435      0.2005265      0.0005032844
3949.703      18.25253      0.7195641      -0.01446491      0.4834547      -1.491004      3.053552      1.112992      0.3709967      0.4542567      0.000761437      0.0002532738      0.2004823      0.0005253908
4067.655      17.98594      0.7197009      -0.01509804      0.4836665      -1.471602      3.053552      1.112992      0.3709967      0.4542231      0.0007951364      0.0002644668      0.2004362      0.0005484366
4189.13      17.72325      0.7198435      -0.01575819      0.4838868      -1.452266      3.053552      1.112992      0.3709967      0.4541879      0.0008302896      0.0002761416      0.2003882      0.0005724593
4314.232      17.4644      0.7199921      -0.01644646      0.4841159      -1.432998      3.053552      1.112992      0.3709966      0.4541513      0.0008669566      0.0002883177      0.2003381      0.0005974975
4443.07      17.20932      0.720147      -0.01716398      0.4843543      -1.4138      3.053552      1.112992      0.3709966      0.4541131      0.0009051991      0.0003010157      0.2002859      0.0006235912
4575.755      16.95797      0.7203084      -0.0179119      0.4846022      -1.394673      3.053552      1.112992      0.3709965      0.4540732      0.0009450813      0.0003142566      0.2002315      0.0006507816
4712.403      16.71029      0.7204766      -0.01869144      0.4848599      -1.375621      3.053552      1.112992      0.3709965      0.4540317      0.0009866698      0.0003280624      0.2001749      0.0006791114
4853.132      16.46623      0.7206519      -0.01950383      0.4851279      -1.356644      3.053552      1.112992      0.3709965      0.4539884      0.001030033      0.0003424557      0.2001158      0.0007086246
4998.063      16.22574      0.7208344      -0.02035036      0.4854065      -1.337746      3.053552      1.112992      0.3709964      0.4539432      0.001075243      0.00035746      0.2000544      0.0007393665
5147.323      15.98875      0.7210246      -0.02123237      0.485696      -1.318929      3.053552      1.112992      0.3709963      0.4538961      0.001122373      0.0003730996      0.1999903      0.0007713839
5301.04      15.75523      0.7212226      -0.02215121      0.4859969      -1.300194      3.053552      1.112992      0.3709963      0.453847      0.001171498      0.0003893994      0.1999236      0.0008047247
5459.348      15.52512      0.7214288      -0.02310832      0.4863096      -1.281546      3.053552      1.112992      0.3709962      0.4537959      0.001222699      0.0004063855      0.1998542      0.0008394387
5622.383      15.29837      0.7216435      -0.02410513      0.4866345      -1.262986      3.053552      1.112992      0.3709962      0.4537426      0.001276056      0.0004240845      0.1997819      0.0008755767
5790.287      15.07493      0.721867      -0.02514315      0.486972      -1.244517      3.053552      1.112992      0.3709961      0.453687      0.001331654      0.0004425241      0.1997067      0.000913191
5963.205      14.85475      0.7220995      -0.02622393      0.4873226      -1.226142      3.053553      1.112992      0.370996      0.4536292      0.001389578      0.0004617327      0.1996284      0.0009523354
6141.287      14.63779      0.7223416      -0.02734905      0.4876867      -1.207863      3.053553      1.112992      0.3709959      0.4535689      0.001449919      0.0004817397      0.199547      0.000993065
6324.687      14.424      0.7225934      -0.02852014      0.4880648      -1.189684      3.053553      1.112993      0.3709958      0.4535061      0.001512768      0.0005025753      0.1994622      0.001035436
6513.564      14.21333      0.7228553      -0.02973889      0.4884575      -1.171607      3.053553      1.112993      0.3709957      0.4534407      0.001578222      0.0005242707      0.1993741      0.001079507
6708.082      14.00574      0.7231277      -0.031007      0.4888651      -1.153636      3.053553      1.112993      0.3709956      0.4533727      0.001646376      0.0005468579      0.1992824      0.001125337
6908.409      13.80118      0.723411      -0.03232625      0.4892883      -1.135773      3.053553      1.112993      0.3709955      0.4533018      0.001717333      0.0005703699      0.1991871      0.001172987
7114.718      13.59961      0.7237055      -0.03369845      0.4897275      -1.118022      3.053553      1.112993      0.3709954      0.453228      0.001791194      0.0005948405      0.1990881      0.001222517
7327.188      13.40098      0.7240117      -0.03512543      0.4901833      -1.100387      3.053553      1.112993      0.3709953      0.4531513      0.001868068      0.0006203044      0.1989851      0.001273992
7546.003      13.20526      0.7243298      -0.03660909      0.4906563      -1.08287      3.053553      1.112993      0.3709951      0.4530714      0.001948062      0.0006467973      0.1988781      0.001327475
7771.353      13.01239      0.7246603      -0.03815136      0.491147      -1.065474      3.053554      1.112993      0.370995      0.4529883      0.002031288      0.0006743558      0.198767      0.001383031
8003.433      12.82234      0.7250035      -0.0397542      0.491656      -1.048205      3.053554      1.112993      0.3709948      0.4529018      0.002117862      0.0007030171      0.1986516      0.001440728
8242.443      12.63506      0.72536      -0.04141962      0.4921839      -1.031064      3.053554      1.112993      0.3709947      0.4528119      0.002207899      0.0007328197      0.1985318      0.001500632
8488.592      12.45052      0.7257301      -0.04314965      0.4927313      -1.014056      3.053554      1.112994      0.3709945      0.4527184      0.002301521      0.0007638025      0.1984075      0.00156281
8742.09      12.26867      0.7261142      -0.04494637      0.4932989      -0.9971844      3.053554      1.112994      0.3709943      0.4526213      0.00239885      0.0007960056      0.1982784      0.001627333
9003.16      12.08948      0.7265127      -0.04681188      0.4938873      -0.9804531      3.053555      1.112994      0.3709941      0.4525203      0.00250001      0.0008294696      0.1981446      0.00169427
9272.025      11.91291      0.7269261      -0.04874831      0.4944971      -0.963866      3.053555      1.112994      0.3709939      0.4524153      0.002605131      0.000864236      0.1980057      0.00176369
9548.92      11.73892      0.7273548      -0.0507578      0.495129      -0.9474271      3.053555      1.112994      0.3709937      0.4523063      0.00271434      0.0009003471      0.1978618      0.001835664
9834.084      11.56747      0.7277993      -0.05284252      0.4957838      -0.9311403      3.053555      1.112994      0.3709934      0.4521931      0.002827771      0.0009378456      0.1977126      0.001910263
10127.76      11.39852      0.7282598      -0.05500466      0.496462      -0.9150097      3.053556      1.112995      0.3709932      0.4520755      0.002945557      0.0009767751      0.197558      0.001987556
10430.21      11.23204      0.728737      -0.05724642      0.4971644      -0.8990396      3.053556      1.112995      0.3709929      0.4519535      0.003067835      0.00101718      0.1973979      0.002067615
10741.7      11.06799      0.7292312      -0.05956999      0.4978918      -0.8832341      3.053556      1.112995      0.3709926      0.4518268      0.003194743      0.001059104      0.1972321      0.002150509
11062.48      10.90634      0.7297428      -0.06197757      0.4986447      -0.8675975      3.053557      1.112995      0.3709923      0.4516954      0.003326419      0.001102593      0.1970605      0.002236308
11392.85      10.74705      0.7302722      -0.06447137      0.4994241      -0.8521342      3.053557      1.112996      0.3709919      0.4515591      0.003463005      0.001147692      0.1968829      0.002325081
11733.08      10.59008      0.73082      -0.06705356      0.5002306      -0.8368486      3.053558      1.112996      0.3709916      0.4514178      0.003604643      0.001194447      0.1966993      0.002416895
12083.47      10.43541      0.7313864      -0.0697263      0.5010649      -0.8217452      3.053558      1.112996      0.3709912      0.4512712      0.003751474      0.001242904      0.1965095      0.002511817
12444.32      10.28299      0.7319718      -0.07249173      0.5019279      -0.8068284      3.053558      1.112997      0.3709908      0.4511194      0.003903643      0.001293108      0.1963133      0.002609912
12815.95      10.13281      0.7325768      -0.07535196      0.5028203      -0.7921029      3.053559      1.112997      0.3709904      0.4509621      0.004061292      0.001345107      0.1961106      0.002711242
13198.68      9.984812      0.7332015      -0.07830902      0.5037429      -0.7775732      3.05356      1.112997      0.3709899      0.4507993      0.004224566      0.001398945      0.1959014      0.002815868
13592.84      9.83898      0.7338464      -0.08136493      0.5046965      -0.7632441      3.05356      1.112998      0.3709894      0.4506306      0.004393607      0.001454669      0.1956854      0.002923849
13998.77      9.695277      0.7345119      -0.08452161      0.5056819      -0.7491203      3.053561      1.112998      0.3709889      0.4504561      0.004568557      0.001512323      0.1954626      0.003035239
14416.82      9.553673      0.7351982      -0.08778094      0.5066998      -0.7352065      3.053561      1.112999      0.3709884      0.4502756      0.004749557      0.001571953      0.1952329      0.003150092
14847.36      9.414137      0.7359056      -0.09114467      0.5077512      -0.7215076      3.053562      1.112999      0.3709878      0.4500889      0.004936747      0.001633603      0.1949962      0.003268455
15290.75      9.27664      0.7366345      -0.09461448      0.5088367      -0.7080283      3.053563      1.113      0.3709872      0.449896      0.005130263      0.001697317      0.1947523      0.003390373
15747.39      9.14115      0.737385      -0.09819195      0.5099572      -0.6947737      3.053564      1.113      0.3709865      0.4496966      0.005330241      0.001763136      0.1945013      0.003515886
16217.66      9.007639      0.7381573      -0.1018785      0.5111135      -0.6817485      3.053564      1.113001      0.3709859      0.4494906      0.005536812      0.001831103      0.194243      0.00364503
16701.97      8.876079      0.7389517      -0.1056754      0.5123065      -0.6689579      3.053565      1.113002      0.3709851      0.449278      0.005750104      0.001901258      0.1939774      0.003777835
17200.75      8.746439      0.7397683      -0.1095839      0.5135369      -0.6564067      3.053566      1.113002      0.3709844      0.4490586      0.005970241      0.001973639      0.1937044      0.003914325
17714.43      8.618694      0.7406071      -0.1136048      0.5148056      -0.6441001      3.053567      1.113003      0.3709836      0.4488322      0.006197343      0.002048283      0.1934241      0.00405452
18243.44      8.492813      0.7414683      -0.1177391      0.5161134      -0.632043      3.053568      1.113004      0.3709827      0.4485988      0.006431522      0.002125226      0.1931362      0.004198431
18788.25      8.368772      0.7423518      -0.1219872      0.517461      -0.6202407      3.05357      1.113005      0.3709818      0.4483583      0.006672888      0.002204501      0.192841      0.004346062
19349.34      8.246542      0.7432577      -0.1263495      0.5188494      -0.6086982      3.053571      1.113006      0.3709809      0.4481106      0.006921542      0.002286139      0.1925383      0.004497412
19927.18      8.126097      0.7441857      -0.1308263      0.5202793      -0.5974207      3.053572      1.113007      0.3709799      0.4478555      0.007177578      0.002370169      0.1922282      0.00465247
20522.27      8.007411      0.7451359      -0.1354173      0.5217515      -0.5864136      3.053574      1.113008      0.3709788      0.447593      0.007441082      0.002456615      0.1919107      0.004811217
21135.14      7.890459      0.7461078      -0.1401222      0.5232669      -0.5756819      3.053575      1.113009      0.3709777      0.447323      0.007712134      0.002545503      0.1915858      0.004973627
21766.31      7.775215      0.7471014      -0.1449403      0.5248262      -0.5652311      3.053577      1.11301      0.3709766      0.4470455      0.007990801      0.002636851      0.1912538      0.005139663
22416.32      7.661654      0.7481162      -0.1498706      0.5264304      -0.5550665      3.053578      1.113011      0.3709753      0.4467604      0.008277144      0.002730676      0.1909145      0.005309278
23085.75      7.549752      0.7491518      -0.1549118      0.5280801      -0.5451934      3.05358      1.113012      0.3709741      0.4464676      0.008571211      0.002826991      0.1905683      0.005482417
23775.17      7.439484      0.7502078      -0.1600622      0.5297761      -0.5356174      3.053582      1.113014      0.3709727      0.4461671      0.00887304      0.002925807      0.1902151      0.005659013
24485.18      7.330826      0.7512835      -0.1653199      0.5315194      -0.526344      3.053584      1.113015      0.3709713      0.445859      0.009182657      0.003027127      0.1898551      0.005838989
25216.4      7.223756      0.7523784      -0.1706825      0.5333106      -0.5173786      3.053586      1.113017      0.3709699      0.4455431      0.009500075      0.003130955      0.1894886      0.006022258
25969.45      7.118249      0.7534917      -0.1761471      0.5351507      -0.508727      3.053588      1.113018      0.3709683      0.4452195      0.009825295      0.003237287      0.1891157      0.00620872
